Sensor Model:   RX-202A-AA-0.05H-0.05B
Serial Number:  UMEN202
Data Format:    4      (Log Ohms/Kelvin)
SetPoint Limit: 40.      (Kelvin)
Temperature coefficient:  1 (Negative)
Number of Breakpoints:   97

No.   Units      Temperature (K)

  1  3.35085        40.000
  2  3.35222        38.500
  3  3.35346        37.200
  4  3.35476        35.900
  5  3.35612        34.600
  6  3.35755        33.300
  7  3.35894        32.100
  8  3.36039        30.900
  9  3.36192        29.700
 10  3.36340        28.600
 11  3.36495        27.500
 12  3.36659        26.400
 13  3.36831        25.300
 14  3.37014        24.200
 15  3.37191        23.200
 16  3.37377        22.200
 17  3.37575        21.200
 18  3.37785        20.200
 19  3.37942        19.500
 20  3.38081        18.900
 21  3.38226        18.300
 22  3.38377        17.700
 23  3.38522        17.150
 24  3.38672        16.600
 25  3.38829        16.050
 26  3.38993        15.500
 27  3.39165        14.950
 28  3.39345        14.400
 29  3.39516        13.900
 30  3.39695        13.400
 31  3.39882        12.900
 32  3.40079        12.400
 33  3.40286        11.900
 34  3.40482        11.450
 35  3.40688        11.000
 36  3.40905        10.550
 37  3.41134        10.100
 38  3.41377         9.650
 39  3.41606         9.250
 40  3.41848         8.850
 41  3.42105         8.450
 42  3.42380         8.050
 43  3.42637         7.700
 44  3.42910         7.350
 45  3.43202         7.000
 46  3.43515         6.650
 47  3.43853         6.300
 48  3.44230         5.940
 49  3.44593         5.620
 50  3.44984         5.300
 51  3.45355         5.020
 52  3.45734         4.760
 53  3.46180         4.480
 54  3.46632         4.220
 55  3.47012         4.020
 56  3.47357         3.850
 57  3.47726         3.680
 58  3.48122         3.510
 59  3.48524         3.350
 60  3.48955         3.190
 61  3.49421         3.030
 62  3.49894         2.880
 63  3.50406         2.730
 64  3.50962         2.580
 65  3.51528         2.440
 66  3.52145         2.300
 67  3.52772         2.170
 68  3.53459         2.040
 69  3.54157         1.920
 70  3.54923         1.800
 71  3.55775         1.680
 72  3.56646         1.570
 73  3.57616         1.460
 74  3.58708         1.350
 75  3.59830         1.250
 76  3.61092         1.150
 77  3.62451         1.055
 78  3.63912         0.965
 79  3.65489         0.880
 80  3.67206         0.800
 81  3.69095         0.725
 82  3.71460         0.645
 83  3.73889         0.575
 84  3.76599         0.510
 85  3.79703         0.448
 86  3.83269         0.390
 87  3.87369         0.336
 88  3.92642         0.281
 89  3.98609         0.233
 90  4.05672         0.190
 91  4.14042         0.153
 92  4.24807         0.120
 93  4.40832         0.088
 94  4.57858         0.067
 95  4.76196         0.055
 96  4.79575         0.051
 97  4.81870         0.050
